#"Step";"Kinetic Energy (kJ/mole)";"Temperature (K)";"Box Volume (nm^3)";"Speed (ns/day)"
5;5.424132646935148;0.03461233061921825;250.04699999999997;0
10;8.984167746320365;0.05732953167173444;250.04699999999997;13.6
15;15.52565060570461;0.09907186767395053;250.04699999999997;15.3
20;21.494498168979046;0.13716011859320207;250.04699999999997;13.5
25;27.842378431998085;0.17766704286965257;250.04699999999997;12.7
30;36.25625208372296;0.2313574290711006;250.04699999999997;13
35;46.805076431954134;0.298671305731426;250.04699999999997;13.2
40;57.527952485878146;0.36709583649525734;250.04699999999997;12.9
45;63.56107224014911;0.405594219405962;250.04699999999997;13
50;69.47403129250925;0.44332583604956133;250.04699999999997;12.6
55;78.13046170527717;0.4985640189871184;250.04699999999997;12.9
60;87.70610375520354;0.5596678507141346;250.04699999999997;12.9
65;95.4593220568574;0.6091424806112204;250.04699999999997;12.7
70;102.47562469523244;0.653914723926684;250.04699999999997;12.5
75;110.94451367873391;0.707956172496353;248.46577856446615;11.9
80;126.2408843567013;0.8055649652088762;248.46577856446615;12
85;143.64589406795707;0.9166293490965167;248.46577856446615;12
90;157.8580536285416;1.0073196027358682;248.46577856446615;12.2
95;165.85275177441264;1.0583351573761286;248.46577856446615;12.3
100;170.9261172742667;1.0907091820291401;248.46577856446615;12.2
105;178.65028634986624;1.1399984437794877;248.46577856446615;12.3
110;187.30359486278277;1.1952167053329545;248.46577856446615;12.4
115;191.61336057712032;1.222718067395018;248.46577856446615;12.4
120;193.2649343599593;1.233257045981015;248.46577856446615;12.4
125;198.2526795004164;1.2650847122795976;248.46577856446615;12.3
130;205.6816482227051;1.3124902494065294;248.46577856446615;12.3
135;210.00868721760327;1.340101835265937;248.46577856446615;12.2
140;214.87096853756952;1.3711288951785323;248.46577856446615;12.3
145;221.6624907511381;1.4144667756406972;248.46577856446615;12.3
150;228.27364366195343;1.4566536883174444;248.46577856446615;12.2
155;233.2782699230112;1.4885890759726912;248.46577856446615;12.2
160;239.33080942710697;1.5272113796731757;248.46577856446615;11.9
165;245.1371263037995;1.564262494108879;248.46577856446615;11.8
170;248.85048469300503;1.5879580776502316;248.46577856446615;11.8
175;254.19459224548172;1.622059754270456;248.46577856446615;11.8
180;262.20074744260376;1.6731484183406717;248.46577856446615;11.8
185;268.4456373237739;1.712998143138572;248.46577856446615;11.9
190;273.19933002936096;1.7433322802804643;248.46577856446615;11.9
195;278.42210945899126;1.776659741118237;248.46577856446615;11.9
200;283.1954712786209;1.8071193902862064;247.79909121023329;11.9
205;286.9547517014986;1.8311080102843769;247.79909121023329;11.9
210;291.0601692783768;1.8573053914603608;247.79909121023329;11.9
215;295.1816137621924;1.8836050431075568;247.79909121023329;11.9
220;298.02878525201146;1.9017733379022854;247.79909121023329;12
225;299.9767454397556;1.914203609512507;247.79909121023329;11.9
230;301.5852743061606;1.924467911025492;247.79909121023329;12
235;302.0012479157057;1.9271223107313284;247.79909121023329;12
240;300.49193234645026;1.917491106464722;247.79909121023329;11.9
245;300.2521847801194;1.9159612356870068;247.79909121023329;11.9
250;302.22465421551885;1.9285479050548595;247.79909121023329;11.8
255;305.8227279417019;1.9515078371784478;247.79909121023329;11.8
260;308.7671279376198;1.9702965639238237;247.79909121023329;11.8
265;311.91028289239836;1.9903535805131396;247.79909121023329;11.8
270;315.14198123149555;2.0109756077855763;247.79909121023329;11.9
275;318.1366706296272;2.030085239923457;246.70966938823133;11.9
280;324.15678479070317;2.068500631889643;246.70966938823133;11.9
285;331.3218599150097;2.1142222182255086;246.70966938823133;12
290;338.92610367934446;2.1627462157772652;246.70966938823133;12.1
295;346.4138946340091;2.210527107765017;246.70966938823133;12.1
300;352.4546006590472;2.249073899984462;246.70966938823133;12
305;358.40065882507173;2.287016727809632;246.70966938823133;12
310;364.56834536237426;2.3263738046881706;246.70966938823133;12
315;371.3604343705619;2.369715301965046;246.70966938823133;12
320;377.9044429578893;2.4114737550750673;246.70966938823133;12.1
325;382.3294800439643;2.4397106837409015;246.70966938823133;12.1
330;385.5116667465045;2.460016768678304;246.70966938823133;12.1
335;391.3035643748773;2.4969758713910997;246.70966938823133;12.2
340;398.45890068254516;2.542635312649904;246.70966938823133;12.2
345;404.15724087285093;2.578997409133493;246.70966938823133;12.2
350;406.0034779613203;2.5907785680149362;246.70966938823133;12.2
355;404.5081508562667;2.58123662656311;246.70966938823133;12.2
360;403.6644529226485;2.5758528438052077;246.70966938823133;12.3
365;406.49657877135434;2.5939251297560366;246.70966938823133;12.3
370;409.2790678491509;2.6116806748678396;246.70966938823133;12.3
375;409.46226263217886;2.612849672532648;246.68335229072392;12.3
380;409.6805153243193;2.614242380792312;246.68335229072392;12.3
385;411.6113067346325;2.626563095457774;246.68335229072392;12.3
390;414.59616581334916;2.645609998623517;246.68335229072392;12.3
395;418.0821127551575;2.667854430300367;246.68335229072392;12.3
400;420.0449280907433;2.6803794951839035;246.68335229072392;12.3
405;421.0419875028404;2.686741904119092;246.68335229072392;12.4
410;422.8585464101524;2.6983336813822634;246.68335229072392;12.3
415;424.9130828429571;2.711444034485749;246.68335229072392;12.3
420;426.39629794236345;2.7209086871300894;246.68335229072392;12.3
425;429.6117859425846;2.7414272734203182;246.68335229072392;12.3
430;435.94956982019886;2.78186977091143;246.68335229072392;12.3
435;442.024347967077;2.8206339832462732;246.68335229072392;12.4
440;443.5354429619822;2.8302765423363905;246.68335229072392;12.4
445;442.9434174285553;2.8264987247880735;246.68335229072392;12.4
450;445.561436818856;2.843204760315397;246.68335229072392;12.4
455;447.8348148921334;2.8577115798599406;246.68335229072392;12.4
460;450.73453404746743;2.876215190416739;246.68335229072392;12.4
465;454.9544891163243;2.9031434551825446;246.68335229072392;12.5
470;456.5712052599548;2.9134600011306575;246.68335229072392;12.5
475;457.3359560136415;2.918340008249004;246.68335229072392;12.5
480;460.9513211706006;2.9414102799896074;246.68335229072392;12.5
485;465.907644737729;2.97303743978228;246.68335229072392;12.6
490;469.0722396153158;2.993231268235353;246.68335229072392;12.6
495;467.22991400134174;2.981475069150665;246.68335229072392;12.6
500;463.4267261870928;2.9572062684774094;246.68335229072392;12.6
505;477.2054776694345;3.0451308700441375;246.68335229072392;12.6
510;483.20863812756414;3.0834380774931303;246.68335229072392;12.6
515;494.8206199482591;3.157536146269038;246.68335229072392;12.6
520;512.3976509452535;3.2696982277985116;246.68335229072392;12.6
525;525.038335013397;3.3503606239268375;246.68335229072392;12.6
530;540.9889167212453;3.452144050619555;246.68335229072392;12.6
535;556.3131611794072;3.549930710755037;246.68335229072392;12.6
540;568.6288995428478;3.628519572016765;246.68335229072392;12.6
545;578.0225000698216;3.688461765231416;246.68335229072392;12.6
550;590.8638491581623;3.770404639636154;246.68335229072392;12.6
555;599.1239351224986;3.823113679947385;246.68335229072392;12.6
560;609.976818339691;3.892367808954994;246.68335229072392;12.6
565;620.7557830664352;3.961150251262294;246.68335229072392;12.6
570;630.7132287900461;4.02469043841153;246.68335229072392;12.7
575;640.7452744642126;4.0887066607761415;246.68335229072392;12.7
580;646.5762240046457;4.125914960508909;246.68335229072392;12.7
585;650.7228772686026;4.152375473751783;246.68335229072392;12.7
590;663.5514163549049;4.234236605313075;246.68335229072392;12.7
595;675.8616750329833;4.312790499752679;246.68335229072392;12.7
600;692.176871003955;4.416900593259277;246.68335229072392;12.6
605;703.3819419485243;4.488402093202199;246.68335229072392;12.7
610;715.0877750461315;4.563099043243916;246.68335229072392;12.7
615;724.4792780526611;4.623027851817036;246.68335229072392;12.7
620;723.6920531405063;4.618004433197917;246.68335229072392;12.7
625;725.2742448081929;4.628100672480686;246.68335229072392;12.7
630;728.6869483860164;4.649877725556216;246.68335229072392;12.7
635;738.0059444137901;4.709343854529801;246.68335229072392;12.7
640;752.0044598337923;4.798670807875811;246.68335229072392;12.7
645;762.3672622294038;4.864797646212112;246.68335229072392;12.7
650;774.2883834993847;4.940868387399004;246.68335229072392;12.7
655;779.5424175401304;4.9743952893278625;246.68335229072392;12.7
660;782.8232360319902;4.9953307608093835;246.68335229072392;12.7
665;784.5766539349837;5.0065196243793695;246.68335229072392;12.7
670;792.913108839654;5.059715988136383;246.68335229072392;12.7
675;800.6595562170053;5.109147411591847;246.27484312059033;12.7
680;812.0301195153064;5.181704946929765;246.27484312059033;12.7
685;823.6167071059716;5.2556409707221095;246.27484312059033;12.7
690;831.3402055460797;5.30492595303114;246.27484312059033;12.7
695;847.4672928565744;5.407835692569175;246.27484312059033;12.8
700;855.3638623975826;5.458225071572555;246.27484312059033;12.8
705;861.6876614362768;5.498578329382439;246.27484312059033;12.8
710;869.7933167426918;5.5503019208970334;246.27484312059033;12.8
715;878.0428426892269;5.602943575904241;246.27484312059033;12.8
720;887.6523640501839;5.664263597387459;246.27484312059033;12.8
725;891.8656351986182;5.691149210898482;246.27484312059033;12.8
730;902.3096933128754;5.757794556060028;246.27484312059033;12.8
735;901.3950019868322;5.751957752159329;246.27484312059033;12.9
740;910.80136571249;5.811981389557108;246.27484312059033;12.9
745;909.9462616288133;5.806524822178582;246.27484312059033;12.9
750;914.659399272379;5.836600170440051;246.27484312059033;12.9
755;924.2522058766565;5.897813532163622;246.27484312059033;12.9
760;932.5537011501285;5.950786812454186;246.27484312059033;12.9
765;932.0013505289513;5.947262167398036;246.27484312059033;13
770;929.9010507872491;5.933859790688033;246.27484312059033;13
775;939.5833773757237;5.9956443949478295;246.27484312059033;13
780;955.2379991053214;6.09553924971872;246.27484312059033;13
785;962.5419322087621;6.14214691288857;246.27484312059033;13
790;961.2421860389726;6.133853007285942;246.27484312059033;13
795;958.526023540032;6.1165207035706235;246.27484312059033;13
800;957.7158765253109;6.111351015041796;246.27484312059033;12.9
805;962.0654977530761;6.139106702043448;246.27484312059033;13
810;965.1533292506588;6.158810690062834;246.27484312059033;13
815;983.1401639736761;6.273587800201924;246.27484312059033;13
820;991.451057711068;6.3266210537198555;246.27484312059033;13
825;994.5212514160326;6.346212491927274;246.27484312059033;13
830;999.9135274316513;6.380621539860153;246.27484312059033;13
835;999.188308586666;6.375993792703544;246.27484312059033;13
840;1004.8414955014581;6.412067758309378;246.27484312059033;13
845;1005.8163687534626;6.41828859351135;246.27484312059033;13
850;1022.9356338934426;6.52752959175977;246.27484312059033;13
855;1025.9560016042744;6.5468030816619756;246.27484312059033;13
860;1024.8663780917389;6.539850005157168;246.27484312059033;13
865;1031.8916104787986;6.58467923074684;246.27484312059033;13
870;1035.1716842782737;6.605609950217171;246.27484312059033;13
875;1037.8264536612019;6.622550493817559;246.27484312059033;13
880;1031.8049377147518;6.58412615681592;246.27484312059033;13
885;1041.139714321612;6.643692984400005;246.27484312059033;13
890;1042.5213675806729;6.652509553336746;246.27484312059033;13
895;1054.2940740998285;6.7276332342729575;246.27484312059033;13
900;1058.5393328320545;6.754722966100764;246.27484312059033;13
905;1058.5304831571123;6.754666494790988;246.27484312059033;13
910;1057.2314657026645;6.746377239247268;246.27484312059033;12.9
915;1060.1186796639563;6.764801051993278;246.27484312059033;12.9
920;1054.4589621846897;6.7286854137235474;246.27484312059033;13
925;1061.4426389653115;6.773249465785443;246.27484312059033;12.9
930;1069.691316815601;6.825885708943502;246.27484312059033;13
935;1086.241109878791;6.931492807159738;246.27484312059033;13
940;1081.5589660728003;6.901615235948192;246.27484312059033;13
945;1085.699679359491;6.928037845166518;246.27484312059033;13
950;1091.4174190769968;6.964523733395812;245.8371173805054;13
955;1103.2451650014054;7.03999863031727;245.8371173805054;13
960;1103.649628039255;7.042579579069918;245.8371173805054;13
965;1103.6940711990349;7.042863178576086;245.8371173805054;12.9
970;1109.7742772709087;7.081662027441183;245.8371173805054;12.9
975;1104.6187425232492;7.048763666575012;245.8371173805054;12.9
980;1104.7007144645875;7.049286743741405;245.8371173805054;12.9
985;1105.6998878298305;7.055662642178041;245.8371173805054;12.9
990;1115.2710689930275;7.116738008213605;245.8371173805054;12.9
995;1123.7861420871418;7.171074165598477;245.8371173805054;12.9
1000;1119.086791306739;7.141086793700614;245.8371173805054;12.9
1005;1139.3960357658464;7.270683602923623;245.8371173805054;12.9
1010;1147.3331216793829;7.321331523923065;245.8371173805054;12.9
1015;1165.320435681616;7.436111692425907;245.8371173805054;12.9
1020;1170.7669856582925;7.470867071911942;245.8371173805054;12.9
1025;1185.4106568356833;7.564310875974766;245.8371173805054;12.9
1030;1199.048033091002;7.6513333377124;245.8371173805054;13
1035;1215.469825387445;7.756123640848845;245.8371173805054;13
1040;1225.5849428213114;7.820669958511453;245.8371173805054;13
1045;1234.0466378206647;7.874665501021293;245.8371173805054;13
1050;1238.6391338870062;7.90397101446693;245.8371173805054;13
1055;1254.2572853442841;8.003633146108525;245.8371173805054;13
1060;1274.5750715026397;8.133284461395023;245.8371173805054;13
1065;1282.2220899869542;8.182081411849383;245.8371173805054;13
1070;1297.7886776696648;8.281414506107591;245.8371173805054;13
1075;1302.4154861029986;8.310938972714583;245.8371173805054;13
1080;1314.2173904100307;8.386248969796272;245.8371173805054;13
1085;1327.910444610191;8.473626722150948;245.8371173805054;13.1
1090;1322.8653451547264;8.441433068026718;245.8371173805054;13.1
1095;1338.7305699208089;8.54267181727857;245.8371173805054;13.1
1100;1357.609231215365;8.663139827356575;245.8371173805054;13.1
1105;1358.3693821914926;8.667990482497007;245.8371173805054;13.1
1110;1364.3923123852333;8.706423844055749;245.8371173805054;13.1
1115;1366.0780989170557;8.71718114012332;245.8371173805054;13.1
1120;1366.9131437058488;8.72250970566419;245.8371173805054;13.1
1125;1374.2293626593969;8.769195766973159;245.8371173805054;13.1
1130;1381.6823845575798;8.816754791584762;245.8371173805054;13.1
1135;1398.3498392145784;8.923112708826116;245.8371173805054;13.1
1140;1404.10108120299;8.959812380853222;245.8371173805054;13.1
1145;1417.4098528896777;9.044737959879319;245.8371173805054;13.1
1150;1417.9698697243177;9.048311524372407;245.8371173805054;13.1
1155;1421.2049748193513;9.06895529074499;245.8371173805054;13.1
1160;1448.4875530843221;9.243050151715147;245.8371173805054;13.1
1165;1445.0048013747698;9.220826109369172;245.8371173805054;13.1
1170;1444.4805166057097;9.217480557380211;245.8371173805054;13.1
1175;1458.1224826435516;9.304532307315704;245.8371173805054;13.1
1180;1467.5923079150843;9.3649609038379;245.8371173805054;13.1
1185;1465.8862789963537;9.354074437590727;245.8371173805054;13.1
1190;1485.8082381197253;9.481199911955795;245.8371173805054;13.1
1195;1495.2219526677222;9.541270456225085;245.8371173805054;13.2
1200;1494.4089705899814;9.536082676667709;245.8371173805054;13.1
1205;1497.1235249721171;9.553404718710949;245.8371173805054;13.2
1210;1509.5081143316506;9.632432930113126;245.8371173805054;13.2
1215;1501.925893411395;9.584049464146796;245.8371173805054;13.2
1220;1524.6269678679394;9.72890895517443;245.8371173805054;13.2
1225;1535.5741395557166;9.798764755256457;245.8371173805054;13.2
1230;1540.4121604226384;9.829637005012957;245.8371173805054;13.2
1235;1533.0135493916637;9.78242518557639;245.8371173805054;13.2
1240;1532.6453746772736;9.780075798905823;245.8371173805054;13.2
1245;1530.1090309348604;9.763890949845024;245.8371173805054;13.2
1250;1555.5828516030274;9.926443815066614;245.8371173805054;13.2
1255;1567.12647247208;10.000105660760655;245.8371173805054;13.2
1260;1581.3040508855272;10.090575246105956;245.8371173805054;13.2
1265;1588.3930587269583;10.135811433924571;245.8371173805054;13.2
1270;1576.3783745771348;10.05914365178356;245.8371173805054;13.2
1275;1589.3006774165988;10.141603106106441;245.8371173805054;13.2
1280;1588.6999716034957;10.137769898188902;245.8371173805054;13.2
1285;1599.2494653206447;10.205088046208317;245.8371173805054;13.2
1290;1618.0320206740407;10.324942787617129;245.8371173805054;13.2
1295;1630.3298865369286;10.403417601354878;245.8371173805054;13.2
1300;1627.2701398586426;10.383892827435542;245.8371173805054;13.2
1305;1631.334795087845;10.409830097005413;245.8371173805054;13.2
1310;1640.6880150031475;10.469514614537562;245.8371173805054;13.2
1315;1628.7169858138943;10.39312540226694;245.8371173805054;13.3
1320;1639.0993284011902;10.459376929953404;245.8371173805054;13.3
1325;1645.8803919223224;10.502648071686261;245.8371173805054;13.3
1330;1652.2449170364412;10.543261209642736;245.8371173805054;13.3
1335;1656.5590154288093;10.570790219274322;245.8371173805054;13.3
1340;1661.108011510673;10.599818151778878;245.8371173805054;13.3
1345;1681.5511694825047;10.730269486338658;245.8371173805054;13.3
1350;1681.2069916233472;10.728073227760852;245.8371173805054;13.3
1355;1687.1847588605506;10.766218396665549;245.8371173805054;13.3
1360;1694.066464053201;10.81013175034922;245.8371173805054;13.3
1365;1694.4933822939104;10.812855989643618;245.8371173805054;13.3
1370;1688.6909679949028;10.77582977823258;245.8371173805054;13.3
1375;1701.0683121613142;10.854811756801586;245.8371173805054;13.3
1380;1712.4897032834124;10.92769363329346;245.8371173805054;13.3
1385;1715.8041473563057;10.948843675436091;245.8371173805054;13.3
1390;1722.4230818320937;10.991080243627755;245.8371173805054;13.3
1395;1722.467669272995;10.991364763816769;245.8371173805054;13.3
1400;1714.9625532504156;10.943473317567591;245.8371173805054;13.3
1405;1733.5896242478366;11.062335886349842;245.8371173805054;13.3
1410;1748.6931475324207;11.158714086417733;245.8371173805054;13.3
1415;1735.4455382559272;11.07417879533275;245.8371173805054;13.3
1420;1746.8657898076772;11.147053400028703;245.8371173805054;13.3
1425;1745.1432516773798;11.136061585640876;245.8371173805054;13.3
1430;1745.4951156661712;11.138306890744158;245.8371173805054;13.3
1435;1746.4960702664914;11.144694155550576;245.8371173805054;13.3
1440;1748.422571734695;11.156987495351837;245.8371173805054;13.3
1445;1758.469182643867;11.2210966610057;245.8371173805054;13.3
1450;1760.34652585547;11.23307631345068;245.1954856504589;13.3
1455;1774.0370801736626;11.320438113625201;245.1954856504589;13.3
1460;1784.6635478517944;11.38824744583203;245.1954856504589;13.3
1465;1784.858735526525;11.389492972217598;245.1954856504589;13.3
1470;1780.4047784650954;11.361071500176143;245.1954856504589;13.2
1475;1779.6499479455301;11.356254795791262;245.1954856504589;13.2
1480;1771.3321970118684;11.303177785315333;245.1954856504589;13.2
1485;1770.053488910735;11.29501812727546;245.1954856504589;13.2
1490;1770.1628816324805;11.29571618119465;245.1954856504589;13.2
1495;1775.1717062398436;11.327678359225395;245.1954856504589;13.2
1500;1780.5792605393183;11.362184900535837;245.1954856504589;13.2
1505;1792.7841864543577;11.440066648356497;245.1954856504589;13.2
1510;1801.523630061928;11.495834552879291;245.1954856504589;13.2
1515;1810.0891958023512;11.550492912592468;245.1954856504589;13.2
1520;1831.365080610255;11.686258021435016;245.1954856504589;13.2
1525;1856.817202064759;11.84867242021296;245.15252153725928;13.2
1530;1863.6351825905392;11.892179135751535;245.15252153725928;13.2
1535;1881.418236013657;12.005655882093267;245.15252153725928;13.2
1540;1896.2543768313824;12.100327868293041;245.15252153725928;13.2
1545;1894.6174498883756;12.089882353730843;245.15252153725928;13.2
