#"Step";"Kinetic Energy (kJ/mole)";"Temperature (K)";"Box Volume (nm^3)";"Speed (ns/day)"
10;9.539056968530343;0.06087037598110523;250.04699999999997;0
20;22.22521996778919;0.14182298105202812;250.04699999999997;14.5
30;37.45873281794259;0.23903066706972648;250.04699999999997;14.3
40;58.559020919426914;0.3736752628913272;250.04699999999997;13.9
50;70.41980803983097;0.44936100141167046;250.04699999999997;13.4
60;88.65840238932346;0.5657446333663827;250.04699999999997;13.6
70;103.28992857467074;0.6591109381298075;250.04699999999997;13.7
80;120.50419217978605;0.76895813805094;250.04699999999997;13.8
90;141.82849409145481;0.9050322048250544;250.04699999999997;13.5
100;154.00579378658892;0.9827376649478711;250.04699999999997;13.1
110;169.25794414983673;1.0800642801671825;250.04699999999997;12.9
120;175.45024621537883;1.1195784329981824;250.04699999999997;12.8
130;189.67618017418218;1.2103565834601715;250.04699999999997;12.8
140;201.94973328586835;1.2886762533182188;250.04699999999997;12.7
150;215.80135327164925;1.3770658414361494;250.04699999999997;12.9
160;228.67645981673417;1.4592241280237652;250.04699999999997;12.9
170;236.82807215215263;1.5112409793064536;250.04699999999997;13
180;249.5336022924032;1.5923171694610736;250.04699999999997;13.1
190;261.5371168977811;1.6689136768028903;250.04699999999997;13.1
200;272.4843755633989;1.738770031905593;250.04699999999997;13.2
210;280.0523296863416;1.7870624589653141;250.04699999999997;13.3
220;288.5324948293095;1.841175862663106;250.04699999999997;13.3
230;293.6055625452712;1.873547987105484;250.04699999999997;13.3
240;292.6305857933091;1.8673264914523435;250.04699999999997;13.3
250;297.5164375293267;1.8985039582753716;250.04699999999997;13.3
260;304.77949179321;1.9448507664842192;250.04699999999997;13.4
270;312.626972461272;1.9949269008804456;250.04699999999997;13.4
280;319.45047739418385;2.0384688686185064;250.04699999999997;13.4
290;331.20266839238946;2.1134616364594505;250.04699999999997;13.5
300;341.28959648167506;2.177828073028052;250.04699999999997;13.5
310;355.3957358027573;2.2678417931419825;250.04699999999997;13.5
320;371.821195253636;2.372655497026532;250.04699999999997;13.6
330;387.82802450017465;2.4747978490133735;250.04699999999997;13.6
340;388.40890550641757;2.4785045514019783;250.04699999999997;13.6
350;396.17317950908125;2.5280497296435622;250.04699999999997;13.6
360;399.4153096763903;2.5487383242200328;250.04699999999997;13.6
370;398.4287559133976;2.5424429536527904;250.04699999999997;13.7
380;397.012566448008;2.533406003197086;250.04699999999997;13.6
390;399.1928914822256;2.5473190351699198;250.04699999999997;13.7
400;400.9988237374158;2.5588430019239174;250.04699999999997;13.7
410;404.7610472058929;2.582850402006194;250.04699999999997;13.7
420;408.7247342090049;2.6081433758239214;250.04699999999997;13.7
430;406.82200146856445;2.5960017083945033;250.04699999999997;13.7
440;412.5829535426255;2.632763342161248;250.04699999999997;13.7
450;421.7368808247219;2.6911761388562603;250.04699999999997;13.6
460;423.46200809614425;2.7021844750023973;250.04699999999997;13.6
470;428.39138946915597;2.7336397119843516;250.04699999999997;13.7
480;440.34143289562064;2.809895010465026;250.04699999999997;13.7
490;445.34397651297223;2.841817108409786;250.04699999999997;13.6
500;448.77904820399743;2.863736896292861;250.04699999999997;13.6
510;449.6188930716419;2.8690960919689084;250.04699999999997;13.6
520;450.21998972113397;2.8729317938811914;250.04699999999997;13.6
530;461.72092634717046;2.9463212640218193;250.04699999999997;13.6
540;469.61611181296666;2.996701811001361;250.04699999999997;13.6
550;485.8378044011518;3.1002152432148673;250.04699999999997;13.6
560;486.6255905745247;3.1052422433391067;250.04699999999997;13.6
570;493.19860968213965;3.1471858176076593;250.04699999999997;13.6
580;494.67739184212877;3.156622182897189;250.04699999999997;13.7
590;489.5656888928519;3.1240035203341385;250.04699999999997;13.7
600;484.45303789156554;3.0913788080868834;250.04699999999997;13.7
610;479.86459103030654;3.0620991333207535;250.04699999999997;13.7
620;474.6446276635528;3.028789642268322;250.04699999999997;13.7
630;474.0574949591948;3.0250430467103984;250.04699999999997;13.6
640;474.9782011262481;3.030918232354173;250.04699999999997;13.6
650;477.40534409854575;3.046406252372405;250.04699999999997;13.6
660;483.4909328597234;3.085239449110965;250.04699999999997;13.6
670;487.7844485316992;3.112637116835996;250.04699999999997;13.6
680;487.1150373789721;3.1083654882371867;250.04699999999997;13.7
690;489.97957558938003;3.1266446030862762;250.04699999999997;13.7
700;494.19078555765293;3.153517063849412;250.04699999999997;13.6
710;499.9344361797426;3.190168294052157;250.04699999999997;13.7
720;505.1940786992982;3.2237309846564557;250.04699999999997;13.7
730;509.23637392719525;3.249525571182196;250.04699999999997;13.7
740;513.3934960673338;3.2760528881386217;250.04699999999997;13.7
750;520.3060848931137;3.320163315638547;250.04699999999997;13.7
760;520.7510698051655;3.3230028414943904;250.04699999999997;13.7
770;522.3334942081788;3.3331005659016215;250.04699999999997;13.7
780;532.7325979608012;3.3994590494893524;250.04699999999997;13.7
790;531.0509630516262;3.3887282456455208;250.04699999999997;13.7
800;526.0869752821093;3.3570521792489223;250.04699999999997;13.7
810;530.7113284330391;3.3865609782733057;250.04699999999997;13.7
820;525.0556169819007;3.3504709031634516;250.04699999999997;13.7
830;519.9316176287516;3.317773775115879;250.04699999999997;13.7
840;524.0538371608565;3.344078372480553;250.04699999999997;13.7
850;522.1780216546273;3.332108468588371;250.04699999999997;13.7
860;523.0402760603063;3.3376106634110037;250.04699999999997;13.7
870;525.9777130921951;3.3563549582759755;250.04699999999997;13.7
880;524.9499005930339;3.3497963085616043;250.04699999999997;13.7
890;523.3248694226048;3.3394267029861937;250.04699999999997;13.7
900;526.091471911782;3.3570808730222934;250.04699999999997;13.7
910;539.1403309902596;3.44034790464311;250.04699999999997;13.7
920;543.1884427050871;3.466179607180162;250.04699999999997;13.7
930;534.5231243294218;3.4108847086107494;250.04699999999997;13.7
940;536.2317532354193;3.4217877658273457;250.04699999999997;13.7
950;525.6955075529992;3.3545541558139;250.04699999999997;13.7
960;529.0007403119959;3.3756454189659;250.04699999999997;13.7
970;519.0396534785785;3.3120819972638524;250.04699999999997;13.7
980;520.7561646224767;3.323035352406771;250.04699999999997;13.7
990;515.2947474468438;3.2881851027471694;250.04699999999997;13.7
1000;508.743355542448;3.246379535411137;250.04699999999997;13.7
1010;539.3315238126588;3.441567939183497;250.04699999999997;13.6
1020;558.8507153296291;3.5661232836378702;250.04699999999997;13.6
1030;581.3106310468498;3.709443898948315;250.04699999999997;13.6
1040;607.7617323860093;3.87823296152973;250.04699999999997;13.6
1050;629.26607564501;4.015455903348872;250.04699999999997;13.5
1060;646.7052173717833;4.1267380895438475;250.04699999999997;13.5
1070;656.1446088918931;4.186972483022941;250.04699999999997;13.6
1080;664.5897908428793;4.240862652908841;250.04699999999997;13.5
1090;683.6058339767753;4.362207320316934;250.04699999999997;13.6
1100;683.49711306128;4.361513553309876;250.04699999999997;13.6
1110;687.4517156633132;4.386748557989662;250.04699999999997;13.5
1120;700.8376129850191;4.472166289061484;250.04699999999997;13.5
1130;711.7227965478007;4.54162653217312;250.04699999999997;13.6
1140;716.3641488199244;4.5712438055364055;250.04699999999997;13.6
1150;726.0785994584195;4.633233398927647;250.04699999999997;13.6
1160;736.6235816505689;4.70052275812403;250.04699999999997;13.6
1170;743.4324959727322;4.743971620645822;250.04699999999997;13.6
1180;757.5746887660066;4.834215404215186;250.04699999999997;13.6
1190;766.7107213221659;4.892514011562189;250.04699999999997;13.6
1200;777.7408498408656;4.962899173561761;250.04699999999997;13.6
1210;785.9541174502236;5.015309457834555;250.04699999999997;13.5
1220;786.5782956015508;5.01929244681091;250.04699999999997;13.5
1230;792.1726861515402;5.0549912226213936;250.04699999999997;13.5
1240;799.1500413037124;5.0995149352763836;250.04699999999997;13.5
1250;818.6277998804869;5.223805888957534;250.04699999999997;13.4
1260;821.8533571451649;5.24438872896963;250.04699999999997;13.4
1270;831.015331959532;5.302852878362992;250.04699999999997;13.4
1280;842.6531392332479;5.377115743831115;250.04699999999997;13.4
1290;858.9448128106052;5.481075736866774;250.04699999999997;13.3
1300;877.0423444281525;5.5965592230776515;250.04699999999997;13.3
1310;894.9955025722476;5.711121437129265;250.04699999999997;13.3
1320;902.580077222875;5.759519922657084;250.04699999999997;13.3
1330;909.3097613698081;5.802463203697266;250.04699999999997;13.3
1340;919.6919291345848;5.868713615810931;250.04699999999997;13.3
1350;929.5174166271446;5.931411754614677;250.04699999999997;13.2
1360;930.7803177395893;5.939470545519803;250.04699999999997;13.2
1370;933.3516168088053;5.955878450579957;250.04699999999997;13.2
1380;934.8205530777936;5.96525198753236;250.04699999999997;13.2
1390;940.0254233294102;5.998465166800916;250.04699999999997;13.2
1400;952.6525146595385;6.079040825311852;250.04699999999997;13.2
1410;949.0977971450197;6.0563575566901;250.04699999999997;13.2
1420;956.3665581737722;6.1027407807547664;250.04699999999997;13.2
1430;975.6032981494371;6.2254937529649625;250.04699999999997;13.2
1440;976.7612514503058;6.232882853693155;250.04699999999997;13.2
1450;980.1091575474787;6.254246422812896;250.04699999999997;13.2
1460;992.6488543556145;6.334264401730355;250.04699999999997;13.2
1470;1006.6403437394381;6.423546520721641;250.04699999999997;13.2
1480;1009.8573318684785;6.444074679593891;250.04699999999997;13.2
1490;1019.0395840752781;6.502668222543173;250.04699999999997;13.2
1500;1023.2969330114531;6.5298351040580505;250.04699999999997;13.2
1510;1026.4617566462316;6.550030392250416;250.04699999999997;13.2
1520;1036.409537354763;6.613508905263131;250.04699999999997;13.2
1530;1032.6603598358486;6.58958475364635;250.04699999999997;13.2
1540;1022.3941784241186;6.524074470556122;250.04699999999997;13.1
1550;1024.3525299936941;6.536571051375013;250.04699999999997;13.1
1560;1030.4818011223347;6.575682992872094;250.04699999999997;13.1
1570;1032.5202042797957;6.58869039674913;250.04699999999997;13.1
1580;1043.9305510207873;6.661501797130771;250.04699999999997;13.2
1590;1051.880349453501;6.7122308389186225;250.04699999999997;13.2
1600;1054.4790948305492;6.728813883626496;250.04699999999997;13.2
1610;1041.6322806015871;6.646836135212146;250.04699999999997;13.1
1620;1038.2164893773022;6.625039379329345;250.04699999999997;13.1
1630;1042.6079628732818;6.6530621329089925;250.04699999999997;13.1
1640;1053.3779634566013;6.721787373463288;250.04699999999997;13.1
1650;1051.4638822885256;6.709573289750034;250.04699999999997;13
1660;1061.4499305230183;6.773295994479061;250.04699999999997;13.1
1670;1058.15459654593;6.752267897170237;250.04699999999997;13.1
1680;1055.5515912110454;6.735657668933006;250.04699999999997;13.1
1690;1060.8806100330773;6.769663061748837;250.04699999999997;13.1
1700;1061.9374228542338;6.776406767544668;250.04699999999997;13.1
1710;1069.0918695622324;6.822060532113782;250.04699999999997;13.1
1720;1067.0436383332674;6.808990413608918;250.04699999999997;13.1
1730;1077.8182794634597;6.877745266297185;250.04699999999997;13.1
1740;1059.2742675525685;6.759412711943235;250.04699999999997;13.1
1750;1065.6355756271305;6.800005321412669;250.04699999999997;13.1
1760;1061.1199769331945;6.771190503429459;250.04699999999997;13.1
1770;1069.0876914680732;6.8220338709707375;250.04699999999997;13.1
1780;1077.9435654479976;6.878544737881132;250.04699999999997;13.1
1790;1082.3970349069937;6.906963098446938;250.04699999999997;13.1
1800;1077.385323781037;6.874982501040706;250.04699999999997;13.1
1810;1084.1258414895092;6.917994912914918;250.04699999999997;13.1
1820;1076.1837720137833;6.867315190941314;250.04699999999997;13.1
1830;1074.3672501964584;6.855723650355779;250.04699999999997;13.1
1840;1066.4786122745868;6.805384884388947;250.04699999999997;13.1
1850;1060.9974778070157;6.770408815271765;250.04699999999997;13.1
1860;1070.7927967426617;6.8329144432845395;250.04699999999997;13.1
1870;1076.226391436565;6.867587152865577;250.04699999999997;13.1
1880;1078.7510574804555;6.883697484507932;250.04699999999997;13.1
1890;1086.6479932891268;6.934089200728758;250.04699999999997;13.1
1900;1079.853966327019;6.890735337032001;250.04699999999997;13.1
1910;1080.8566639012172;6.897133724056855;250.04699999999997;13.1
1920;1084.5080123353675;6.920433611326423;250.04699999999997;13.1
1930;1078.6784018199412;6.883233856144328;250.04699999999997;13.1
1940;1078.1887958223717;6.88010959540734;250.04699999999997;13.1
1950;1080.3085736103837;6.8936362649071;250.04699999999997;13.1
1960;1076.920565435861;6.872016797480642;250.04699999999997;13.1
1970;1083.7879280316515;6.915838628567657;250.04699999999997;13.1
1980;1081.28040104711;6.8998376642338295;250.04699999999997;13.1
1990;1071.7162927256759;6.838807431227536;250.04699999999997;13.1
2000;1076.486776517457;6.869248715200937;250.04699999999997;13.1
2010;1104.805356123455;7.049954480304837;250.04699999999997;13
2020;1138.1469875094099;7.2627132094938895;250.04699999999997;13
2030;1146.9851003028396;7.319110739194603;250.04699999999997;13
2040;1161.0721565925728;7.409002687177713;250.04699999999997;13
2050;1191.580939227421;7.60368451745041;250.04699999999997;13
2060;1206.7324113638551;7.700368687453232;250.04699999999997;13
2070;1217.9089995305985;7.771688433853746;250.04699999999997;13.1
2080;1231.7828405741639;7.860219818393115;250.04699999999997;13.1
2090;1251.920829216998;7.988723814567635;250.04699999999997;13.1
2100;1273.1155194004707;8.123970806437711;250.04699999999997;13.1
2110;1291.7450697391707;8.242849196326423;250.04699999999997;13.1
2120;1303.5551317150876;8.318211248907286;250.04699999999997;13.1
2130;1324.6660870406376;8.452923914134667;250.04699999999997;13.1
2140;1330.2810447535533;8.48875393257682;250.04699999999997;13.1
2150;1347.5795796962573;8.599138882510386;250.04699999999997;13.1
2160;1361.3038985964527;8.686716140335298;250.04699999999997;13.1
2170;1359.0368193239015;8.672249514529998;250.04699999999997;13.1
2180;1386.871445057452;8.849867086087032;250.04699999999997;13.1
2190;1380.1313584154097;8.80685742492243;250.04699999999997;13.1
2200;1402.116669418984;8.947149505288868;250.04699999999997;13.1
2210;1402.4069618202445;8.949001911419526;250.04699999999997;13.1
2220;1419.7536000924506;9.059693817036699;250.04699999999997;13.1
2230;1428.401029989093;9.114874566120744;250.04699999999997;13.1
2240;1444.59529280113;9.21821296417807;250.04699999999997;13.1
2250;1466.2198167837184;9.356202800026109;250.04699999999997;13.1
2260;1490.1181683096474;9.508702323565075;250.04699999999997;13.1
2270;1502.370614752698;9.586887308112006;250.04699999999997;13.1
2280;1513.5170515925024;9.658014653669001;250.04699999999997;13.1
2290;1514.138816062602;9.661982240527065;250.04699999999997;13.1
2300;1528.852392702854;9.755872123465561;250.04699999999997;13.1
2310;1543.2760425086449;9.84791193301851;250.04699999999997;13.1
2320;1534.1083001188558;9.789410979726652;250.04699999999997;13.1
2330;1552.2352864929885;9.90508242184488;250.04699999999997;13.1
2340;1559.3992616097075;9.950796988841658;250.04699999999997;13.1
2350;1568.238620759915;10.007202471761008;250.04699999999997;13.1
2360;1570.3845637650832;10.020896106046823;250.04699999999997;13.1
2370;1587.7059051173208;10.131426587632804;250.04699999999997;13.1
2380;1595.9948716315976;10.184319919739254;250.04699999999997;13.1
2390;1622.1549832192125;10.351252126276975;250.04699999999997;13.1
2400;1630.2296705489032;10.402778105764218;250.04699999999997;13.1
2410;1616.7372298408864;10.31668050287651;250.04699999999997;13.1
2420;1631.043149796049;10.407969057845746;250.04699999999997;13.1
2430;1634.9277215981401;10.432757183852221;250.04699999999997;13.1
2440;1648.5848189465494;10.519905489303248;250.04699999999997;13
2450;1661.3761379723678;10.601529113207004;250.04699999999997;13
2460;1634.3693448159613;10.42919408481817;250.04699999999997;13
2470;1655.8725316163989;10.566409647074762;250.04699999999997;13
2480;1657.8999087906843;10.579346692241952;250.04699999999997;13
2490;1671.2130997283698;10.664300471274682;250.04699999999997;13
2500;1694.8074992938434;10.81486042466807;250.04699999999997;13
2510;1695.4536581917182;10.818983676598208;250.04699999999997;13
2520;1696.668688859483;10.826736997898145;250.04699999999997;13
2530;1694.813464284025;10.814898488304369;250.04699999999997;13
2540;1702.314687283799;10.862765092500224;250.04699999999997;13
2550;1705.4691558415975;10.882894303151469;250.04699999999997;13
2560;1710.9188570924832;10.917669791464464;250.04699999999997;13
2570;1710.8756513539824;10.917394088157966;250.04699999999997;13
2580;1703.4240377458486;10.869844050089277;250.04699999999997;13
2590;1692.7487608140243;10.801723257574219;250.04699999999997;13
2600;1711.3370968463662;10.920338651830125;250.04699999999997;13
2610;1734.6824676024382;11.069309509224988;250.04699999999997;13
2620;1726.8925058591549;11.01960041305789;250.04699999999997;13
2630;1724.6257397769853;11.005135785774703;250.04699999999997;13
2640;1749.1878089365819;11.161870606580466;250.04699999999997;13
2650;1749.5369482845526;11.164098525278392;250.04699999999997;13
2660;1760.979320232967;11.237114284059729;250.04699999999997;13
2670;1748.7311717967355;11.15895672583931;250.04699999999997;13
2680;1770.8348991228847;11.300004441285948;250.04699999999997;13
2690;1776.3687189071873;11.33531670454147;250.04699999999997;13
2700;1805.8643050270452;11.523533152228275;250.04699999999997;13
2710;1786.6928806074254;11.40119696990276;250.04699999999997;13
2720;1779.175022733153;11.3532242156893;250.04699999999997;13
2730;1806.2498506328193;11.525993385567771;250.04699999999997;13
2740;1795.8132004144818;11.459395311474145;250.04699999999997;13
2750;1812.3496949204055;11.564917549291343;250.04699999999997;13
2760;1817.396065354924;11.597119313753224;250.04699999999997;13
2770;1831.0975007267014;11.684550547816752;250.04699999999997;13
2780;1831.8470533542513;11.689333573057832;250.04699999999997;13
2790;1828.4918968712902;11.667923737969621;250.04699999999997;13
2800;1816.1723975211855;11.589310877200075;250.04699999999997;13
2810;1833.492253394164;11.699831879685416;250.04699999999997;13
2820;1822.3794571089707;11.62891920033852;250.04699999999997;13
2830;1810.3736031424583;11.552307765127809;250.04699999999997;13
2840;1811.6277164319401;11.56031047941136;250.04699999999997;13
2850;1835.4022882020524;11.712020142872932;250.04699999999997;13
2860;1830.1791523548527;11.67869040767287;250.04699999999997;13.1
2870;1838.1204034713012;11.729364907554073;250.04699999999997;13.1
2880;1828.2106422035204;11.666129003182938;250.04699999999997;13.1
2890;1834.6328660635752;11.707110326838517;250.04699999999997;13.1
2900;1848.5480766970281;11.795905697901812;250.04699999999997;13.1
2910;1845.58910041463;11.777023957345804;250.04699999999997;13.1
2920;1855.6043686893483;11.840933120216405;250.04699999999997;13.1
2930;1850.5693835160873;11.80880400708009;250.04699999999997;13.1
2940;1862.739440336286;11.886463249162489;250.04699999999997;13.1
2950;1864.9479337272237;11.900556028302152;250.04699999999997;13.1
2960;1869.9813144723134;11.932674903304203;250.04699999999997;13.1
2970;1854.755688439249;11.835517544433422;250.04699999999997;13.1
2980;1837.5480891035656;11.725712870370693;250.04699999999997;13.1
2990;1865.5972251296862;11.90469926928704;250.04699999999997;13.1
3000;1864.400690711195;11.89706397575979;250.04699999999997;13.1
3010;1877.934254304863;11.983423990908928;250.04699999999997;13.1
3020;1903.837336909942;12.148716050956631;250.04699999999997;13.1
3030;1928.027799798763;12.303079587735715;250.04699999999997;13.1
3040;1945.192588818416;12.412611081751269;250.04699999999997;13.1
3050;1969.5720754202562;12.568180811607801;250.04699999999997;13.1
